path_no,x(m),y(m)
1,0.000102523143268,0.000306955287461
2,0.004771400189093,0.000321501060078
3,0.034668099761602,0.000521120706233
4,0.070015830915421,0.002110429913245
5,0.108518092704731,0.006700218039237
6,0.146945315065918,0.014458984392109
7,0.203474403702363,0.031014001758043
8,0.221954448928043,0.037668595161735
9,0.258391120940279,0.052424879376064
10,0.294875772990471,0.068527208853294
11,0.330629705009951,0.085560065125535
12,0.366050118843139,0.103773155417236
13,0.401158608264362,0.122692942113866
14,0.436073698955044,0.141917155518777
15,0.471024162836977,0.161276064872289
16,0.505975897957894,0.180588384540859
17,0.541028181405421,0.19988001733157
18,0.576172634536834,0.219003317430455
19,0.611394830014363,0.237807396476612
20,0.646909714576474,0.256376656907454
21,0.682511063512719,0.27452776229494
22,0.718327106201924,0.292431254855316
23,0.754288580328883,0.310079273383694
24,0.7902104783334,0.327417964301757
25,0.844424729937035,0.353316665452812
26,0.862420623280917,0.361831329682931
27,0.89859868223136,0.378831494620048
28,0.935077295658987,0.395604395651344
29,0.971543194857426,0.411806833887315
30,1.02687116487723,0.435564071573112
31,1.0452751951465,0.443246777471143
32,1.0822228330924,0.458406084483027
33,1.11948501720952,0.473429438046547
34,1.15651867335155,0.488165227133414
35,1.19375594755429,0.502832177916151
36,1.23107099584038,0.517450105692581
37,1.26816553082455,0.531961644281622
38,1.30550531028174,0.546605608950824
39,1.34260618473995,0.561196439401027
40,1.37981219591392,0.575798339315132
41,1.41727838163368,0.590314799131099
42,1.45452605195707,0.604467711854651
43,1.49217742061014,0.618393470638394
44,1.52986859060753,0.631912266195519
45,1.56702934216875,0.644697889632008
46,1.6060354510654,0.655901874529224
47,1.64530398095204,0.664962003984723
48,1.68504849342633,0.672172739867794
49,1.72466406840476,0.677571317676853
50,1.76479828934234,0.681847030801882
51,1.80477050046901,0.6848575032774
52,1.84494867285201,0.686865769853555
53,1.88511498505893,0.687947430852205
54,1.92510424116315,0.688214262938516
55,1.96542220665137,0.687766208093177
56,2.00543445095337,0.686422788109083
57,2.04551216382383,0.684244175574058
58,2.08563873104933,0.681365815037005
59,2.12532587357128,0.677961364156235
60,2.1652617475073,0.674343182941004
61,2.20497446628473,0.67075062746712
62,2.24471633913632,0.667250710281211
63,2.28466609618295,0.664085553204934
64,2.3242847773211,0.661408293579889
65,2.36422554060748,0.659102059875033
66,2.40414041526945,0.657038108219865
67,2.44396558219231,0.655145910514063
68,2.48405801350041,0.653325156382593
69,2.52386534404042,0.65158645259408
70,2.56383424532666,0.649836573440287
71,2.60394612904188,0.647957949359282
72,2.64374341155202,0.64576361561759
73,2.68378591185786,0.643358786095723
74,2.72355446593609,0.641212883542025
75,2.76342787113191,0.63926420723604
76,2.80351707761392,0.637435445344551
77,2.84327775496277,0.63573538021534
78,2.88330273813755,0.634061310168255
79,2.92326029687378,0.632434426610183
80,2.96313098499939,0.630808411574522
81,3.00328431823838,0.629038305032049
82,3.04304944670037,0.627020807630593
83,3.08296408319544,0.62504867005859
84,3.12294959327727,0.62350611543524
85,3.16270581054743,0.622447273567978
86,3.2027799041331,0.621750943080402
87,3.24264550169901,0.621376287228214
88,3.28256098280781,0.621297473134804
89,3.32264829812405,0.621468550666781
90,3.36244860819604,0.621881194411865
91,3.40249216080703,0.622507915491956
92,3.44243800623951,0.623332249346186
93,3.48230044455797,0.624343369281058
94,3.52240973425096,0.625520020375273
95,3.56217640451614,0.626837153109739
96,3.60214683312797,0.628304268185193
97,3.6421540678197,0.629939338974156
98,3.68190238605172,0.631748270742243
99,3.7219336092386,0.633773386546492
100,3.76170967354696,0.635992670284283
101,3.80156851804351,0.638414038193962
102,3.8415727308295,0.640994056574921
103,3.88127526465789,0.64358521027663
104,3.92128016395177,0.646135710099179
105,3.96115593948374,0.648574394788769
106,4.00100237694171,0.650950620309789
107,4.04105312404419,0.653329267487083
108,4.0808029668576,0.655694989780275
109,4.12074906705244,0.658120390632002
110,4.16071554015953,0.660575242401751
111,4.20049150883891,0.662964322130675
112,4.24058042833376,0.665178442813156
113,4.28039185981062,0.667249602093109
114,4.32030984131764,0.669323077757389
115,4.36033534922086,0.671445684776726
116,4.40005659206843,0.67364923900986
117,4.44006426681698,0.675950613883832
118,4.47992890065952,0.678243743894162
119,4.51981488408053,0.680461942498592
120,4.5599419844066,0.682505607158033
121,4.59970380677461,0.684266710065175
122,4.639813395884,0.685632052750096
123,4.6799536965961,0.686444033726713
124,4.71992869125139,0.686661138623744
125,4.76015861343705,0.686292627982034
126,4.79997664238342,0.685793462874994
127,4.83991114391817,0.685588503646269
128,4.87996572761358,0.68574887392729
129,4.91974893994477,0.686238826275461
130,4.9598116809333,0.687045631173291
131,4.99976021650408,0.688021470051662
132,5.03968672532316,0.689027062197292
133,5.07982232410223,0.690051777233974
134,5.11956975276625,0.691210783259119
135,5.15957927340376,0.692564995666862
136,5.19955521327798,0.694016737222089
137,5.23941557458706,0.695491670548455
138,5.27953454730229,0.696951819082418
139,5.31934360394388,0.698357966206944
140,5.35933801836874,0.699688148653703
141,5.39948433281766,0.700860607430059
142,5.43935655932718,0.701738140358836
143,5.47959197910004,0.702081567221626
144,5.51961170835931,0.70182285664919
145,5.55968061200005,0.700918080474968
146,5.59993768197583,0.699239664336929
147,5.63945586353421,0.69711851436976
148,5.67938095109682,0.695162083195702
149,5.71926292243008,0.693901871499033
150,5.75905601473491,0.693312481227717
151,5.81912040533837,0.693002598261664
152,5.83903134417833,0.692916812897793
153,5.87914949516656,0.692612389757619
154,5.91943092352025,0.691665494813822
155,5.95929707533623,0.690492245824156
156,5.99945379279596,0.6890543525677
157,6.05908858824503,0.686571112121279
158,6.07910810110143,0.685811983614509
159,6.11930768027556,0.683946892631072
160,6.15906667201007,0.681690641937163
161,6.19904618806524,0.679408904954915
162,6.23892624580711,0.67760469602301
163,6.27869505493159,0.676442724128734
164,6.31876107539532,0.675886363399554
165,6.3584668458333,0.676087688060578
166,6.39834823415469,0.677049377521552
167,6.43825962089535,0.678651240958772
168,6.47798003591252,0.680781296343343
169,6.51793520299289,0.683394031727225
170,6.5576592444214,0.686320679313861
171,6.59746859625073,0.689490547898407
172,6.63742732053142,0.692685143469453
173,6.67716657494724,0.695678487981488
174,6.71716229323097,0.698538428968171
175,6.75705482505653,0.701182431786665
176,6.79695577640645,0.703519495626147
177,6.85712156552616,0.706083455878672
178,6.87708498824532,0.706573455504384
179,6.91722635060593,0.707053511976975
180,6.95736064031031,0.707045841600687
181,6.99728939123414,0.706550746187922
182,7.03748120634111,0.70570595788291
183,7.07738614620851,0.704608788986344
184,7.11737492154255,0.703290360231652
185,7.15748225700878,0.701824015977125
186,7.19723003528391,0.700541310353427
187,7.23728572916775,0.699524497373391
188,7.27720608676251,0.698736340713296
189,7.31711021829666,0.698129397189588
190,7.35723557191546,0.69767180720757
191,7.39704503107296,0.697377438047342
192,7.43708229563239,0.697200907141718
193,7.47709461229501,0.697101886324495
194,7.51697775848879,0.697045793839266
195,7.55714322690036,0.696957570348608
196,7.59699291004869,0.696799499992445
197,7.63695430430582,0.696845400042326
198,7.67699607917353,0.697144488233269
199,7.71681403233202,0.697630630119976
200,7.75690917374653,0.698224822057787
201,7.79683762939713,0.698844371154134
202,7.83677249413729,0.699484678448602
203,7.87692375297458,0.700152757709403
204,7.9167140541576,0.70085098078569
205,7.95676196714649,0.701596784608173
206,7.99673628274355,0.70238730758488
207,8.03661631547445,0.703236792312283
208,8.07674264539192,0.704138647021092
209,8.11656201433565,0.705085101244239
210,8.15655219924385,0.706079208961296
211,8.19662832301908,0.707091687814295
212,8.2364228384448,0.708145187851363
213,8.27651332584427,0.70924294447591
214,8.31639200820603,0.710373964328659
215,8.35631845217722,0.711551344628067
216,8.39643581178591,0.712778395686127
217,8.43620880212353,0.714024272469796
218,8.47624906521111,0.715317082260032
219,8.51618491527205,0.716651705570027
220,8.55605865813822,0.718031703517773
221,8.59616993713236,0.719458615376834
222,8.63596427060243,0.720907226245695
223,8.6759445409567,0.722412299982688
224,8.71597623166966,0.723957858311571
225,8.75575805163562,0.725546851280603
226,8.79582281217575,0.727205016184574
227,8.83564359166818,0.729007743603859
228,8.87554630114683,0.730965774817981
229,8.91564822556587,0.732835797713919
230,8.95543501447668,0.734554356144385
231,8.99549007716101,0.736177418418099
232,9.03544610747538,0.737714704471064
233,9.07534690051572,0.739116939405408
234,9.13537586581615,0.741125051622783
235,9.1552669805763,0.741788563745339
236,9.19521409625701,0.743262604259317
237,9.23528705498397,0.745137927003558
238,9.27515508904537,0.746745296988979
239,9.31545175373745,0.747559266448759
240,9.35549132332154,0.747637693523547
241,9.39552269489382,0.747269250794003
242,9.43570174545852,0.746578073240794
243,9.4755449687158,0.745703242594042
244,9.51563462747523,0.744725228168252
245,9.5555897173478,0.743706742459222
246,9.59550303432827,0.742689048314559
247,9.63563608099913,0.741692846434197
248,9.67543606630353,0.740770774328824
249,9.71546153759336,0.739907149986933
250,9.75546778143157,0.739124811276919
251,9.79532998632689,0.738432808777398
252,9.83545651261745,0.73779918933369
253,9.87530961216168,0.73722516202761
254,9.91528872285405,0.736723019852501
255,9.95537666892227,0.73629526114523
256,9.99516702598018,0.736037268618236
257,10.035215700111,0.736103865330051
258,10.0750809547888,0.736662747832563
259,10.1149368675939,0.737697075580809
260,10.1550964788183,0.738886959549236
261,10.1948782337054,0.739858353134224
262,10.2350173260325,0.740355211209363
263,10.27511736116,0.740445792845771
264,10.3150296810266,0.740319511039571
265,10.355181201694,0.740042611198423
266,10.3949989282204,0.739901547591283
267,10.4349523640809,0.740072908784264
268,10.475068062222,0.740481888234456
269,10.5149289725634,0.740799127339102
270,10.5551195284113,0.7407438301354
271,10.595104330707,0.740362853768787
272,10.6350723537291,0.739801875506629
273,10.6752419230272,0.739068412508262
274,10.7150507517912,0.738297074255952
275,10.7551106595994,0.737514299236016
276,10.7950664305732,0.736717086087656
277,10.8349192662408,0.736126356503582
278,10.8750959416249,0.735566345078068
279,10.9149967857175,0.734766512034215
280,10.9550832118773,0.73348779995527
281,10.9952342917964,0.731707944740289
282,11.0350474812419,0.729597217368807
283,11.0751142814499,0.727218277936411
284,11.1345748918766,0.723831722987937
285,11.1545421018781,0.722887644052147
286,11.1946444874189,0.721136604680348
287,11.2344400074897,0.719252926238385
288,11.2745067221178,0.716996887923299
289,11.3144199109605,0.714499476399301
290,11.35425666582,0.711831929179633
291,11.3943162080574,0.709004446973855
292,11.4340274621992,0.706078192850667
293,11.473948369573,0.702988370678544
294,11.513885298679,0.699764554568537
295,11.5535827385697,0.696413883129931
296,11.5935694243377,0.692850769974993
297,11.6332622353719,0.689125761696875
298,11.6730617127138,0.685171669807149
299,11.7326951813221,0.678866093372223
300,11.7525287216438,0.67663863791042
301,11.7923567315784,0.67192339271968
302,11.832001433208,0.667125601734683
303,11.8715937982523,0.662238175625388
304,11.9113886759378,0.657184624613588
305,11.9508280778372,0.65195973399244
306,11.9904772137874,0.646601867531256
307,12.0301025172294,0.641588168852751
308,12.0695816155173,0.637068435173449
309,12.1094189854121,0.632945218804736
310,12.1490189332775,0.629346053236416
311,12.1888181546108,0.626160224002177
312,12.2484612155455,0.62147167279881
313,12.2683196638852,0.619740871200608
314,12.3082274994856,0.616356278671566
315,12.3678655804804,0.612183395431959
316,12.3878227881105,0.610914198215494
317,12.427880163618,0.608333742731409
318,12.46739992661,0.606158816840773
319,12.5072897584763,0.60469624437262
320,12.5472884568685,0.603874108669224
321,12.5870724905978,0.603561469798614
322,12.6271423851916,0.603739788932916
323,12.6669018161262,0.604483202543056
324,12.7267840232201,0.606714820072716
325,12.7466729617857,0.607742844510695
326,12.7863443011511,0.610288650059286
327,12.8262025879996,0.6134771402945
328,12.8659082932249,0.617086997212108
329,12.925478846504,0.623155326006064
330,12.9453331693046,0.625324081932406
331,12.9847861755898,0.629894784721615
332,13.024508815796,0.634685449441451
333,13.064282488674,0.639328193997872
334,13.1039356975262,0.643701895409031
335,13.143853734627,0.647828392132492
336,13.1835948535936,0.651486459812579
337,13.2235784251546,0.654633689516215
338,13.2637413232115,0.657081397531915
339,13.3036052484682,0.658784879353192
340,13.3637450072819,0.660830898871112
341,13.3835998391286,0.661536432710301
342,13.423403531852,0.663295763009563
343,13.4635258793134,0.665636818905181
344,13.5032415406008,0.668097490785559
345,13.5432390363349,0.670524500227285
346,13.5831559921271,0.672857359645407
347,13.6229248962967,0.675213979349256
348,13.6628522411201,0.678023622277791
349,13.7022993198768,0.681383781442768
350,13.742094138814,0.685094952570028
351,13.8016826575376,0.690850921098535
352,13.8215019204917,0.692889978919944
353,13.8613188891963,0.697190618876622
354,13.9010086244995,0.701436275896756
355,13.9407739920342,0.705567401266935
356,13.9806801134558,0.709523503298111
357,14.0203715275439,0.713237006212213
358,14.0603001985832,0.716813484168747
359,14.1001669262353,0.720170132726537
360,14.1399834707234,0.723239511926559
361,14.1801144942706,0.725923376873353
362,14.2199395918856,0.728055902456459
363,14.260034183091,0.729641387984111
364,14.3001853571988,0.730694791460354
365,14.3400948764144,0.731293875301478
366,14.3802883968934,0.731518001043254
367,14.420216374908,0.731515687195995
368,14.4602218745672,0.731322709997395
369,14.5004090520605,0.730877336150822
370,14.5402518269538,0.730276216714542
371,14.5803574859229,0.729506119269565
372,14.6203515515519,0.72859259388009
373,14.6602699460811,0.727594966187786
374,14.7004166249307,0.726522826911452
375,14.740223554503,0.725450792883938
376,14.7802376423621,0.724442960384421
377,14.8202709282422,0.72360034253822
378,14.8600861455168,0.723093112391911
379,14.9002123649435,0.722790887514903
380,14.9400928786641,0.722476956561816
381,14.9800950768543,0.722035036971342
382,15.020232942259,0.721452533150335
383,15.0600662874957,0.720788724787504
384,15.1001569692877,0.720101182241841
385,15.1400849847396,0.719454828576263
386,15.1800118009928,0.718856526612877
387,15.2201618167249,0.718224023084416
388,15.2599784110726,0.717604901046258
389,15.3000195456881,0.717000333268059
390,15.3400286338414,0.716441725473421
391,15.3798987026473,0.715961255147131
392,15.4200203835486,0.715573731003094
393,15.4598680236984,0.715388044008305
394,15.4998766534684,0.715208588023863
395,15.5399956773383,0.714920387862384
396,15.5798506206487,0.714573300208868
397,15.6199606597473,0.714192660064413
398,15.6598945430287,0.71378027214932
399,15.6998374726359,0.713371264258483
400,15.7399805291621,0.712965735048939
401,15.7798002220113,0.712588206560704
402,15.819855240278,0.712229237552167
403,15.8598577781184,0.711903941464291
404,15.899747262057,0.711622513647919
405,15.9598230668753,0.711344218305753
406,15.9797170675143,0.711330654709598
407,16.0197482234086,0.71129272947653
408,16.059873870445,0.711043530986696
409,16.0997414181353,0.710659949892779
410,16.1398705858269,0.710165581746552
411,16.1797929824418,0.709586015722888
412,16.219747858692,0.708965932605728
413,16.2598905844186,0.708316729113494
414,16.299701698886,0.70767407323184
415,16.3397656060359,0.707044047528432
416,16.3797469871365,0.706429122281386
417,16.4196474559849,0.705831251937688
418,16.4597928242516,0.70523560189221
419,16.4996340552441,0.704638334289214
420,16.5396519020325,0.704031356748215
421,16.5797086653278,0.703390630709734
422,16.6195746727191,0.702736839259992
423,16.659699009456,0.702059436099309
424,16.6995991727369,0.701346993873495
425,16.7395654817248,0.70059795796525
426,16.7797096400011,0.699775580508316
427,16.8195242800712,0.698899187156729
428,16.8595987532098,0.697976719713662
429,16.8995604062494,0.69703659345336
430,16.939467726282,0.696090321857375
431,16.9796098567767,0.695123351413395
432,17.0194314610684,0.69415967016874
433,17.0594514299289,0.693180545197077
434,17.0994771735115,0.692204687359572
435,17.1994317975665,0.689891251310402
436,17.2193226376554,0.689452530505446
437,17.2392693880082,0.689022701470735
438,17.2592882537853,0.688601642245325
439,17.2993960439152,0.687782239763962
440,17.3392063387509,0.687020018448219
441,17.3792874217837,0.686294014759763
442,17.4192328724231,0.68560331927065
443,17.4591500663538,0.68495080251306
444,17.4992908013931,0.684339833655953
445,17.5391128411188,0.683769443532531
446,17.5791479244778,0.683229805572285
447,17.6191723282516,0.682727057672051
448,17.6590425513196,0.68228034645338
449,17.6991716539254,0.681883970263611
450,17.739041080067,0.681533310852564
451,17.7790246774107,0.681240872562442
452,17.8390185324835,0.680876786998506
453,17.878978960612,0.680676808708827
454,17.8990598819009,0.680587977392974
455,17.9389975831365,0.68042350115254
456,17.9789311966589,0.680289691788006
457,18.0190684787186,0.680201494640389
458,18.0588896446434,0.680142941626305
459,18.0989396463444,0.680102707821887
460,18.138937737552,0.680087020771365
461,18.1788238116442,0.680109758173807
462,18.2189559703066,0.680173875394548
463,18.2587981608402,0.680296959357721
464,18.298794846919,0.680470511421075
465,18.3388782832085,0.680685524128397
466,18.3787098017574,0.680973033074859
467,18.418812916805,0.681331539462356
468,18.4587335707498,0.681749680506499
469,18.4986697144638,0.682229682894156
470,18.5388231562303,0.682757556910733
471,18.5786075459058,0.683357968988965
472,18.6186577022891,0.68403264689667
473,18.6785333196648,0.68519487734773
474,18.6984883961754,0.685647100641834
475,18.7385593927265,0.686819372011979
476,18.7982179797007,0.68928120668208
477,18.8181966276389,0.690313826179405
478,18.8582464410407,0.692688906003676
479,18.8979982105484,0.69509414326929
480,18.9380735508859,0.697348188059019
481,18.9978433937284,0.70047288878127
482,19.0178271576387,0.70151529865196
483,19.0578651532621,0.703671899811615
484,19.0975880039408,0.705933649823978
485,19.1774075714478,0.710930168211611
486,19.1972561759587,0.712261667265095
487,19.2171865432384,0.713628360319693
488,19.2571967916095,0.716384540539233
489,19.2969335037769,0.719207919306295
490,19.3367877023981,0.722265809141158
491,19.376655941193,0.725614384031391
492,19.416295702186,0.729152276019054
493,19.456204120253,0.732857530638862
494,19.495915499767,0.736478354372022
495,19.5357109933983,0.74013635958521
496,19.5756684228164,0.743733117173487
497,19.6153789706217,0.747097650994845
498,19.6553621220133,0.750259481300346
499,19.6952234326199,0.753204492342297
500,19.7350003238044,0.75611317876995
501,19.7749140596931,0.759305214865866
502,19.81450963817,0.762886440635527
503,19.854264801209,0.76687464680266
504,19.8939956497148,0.771171208801249
505,19.9334897597493,0.775855668783839
506,19.9741648823197,0.780970901026844
507,20.0145354955984,0.784679063363967
508,20.0548503828035,0.786504770903467
509,20.0953736027392,0.786443455782405
510,20.1354515507409,0.784540386248069
511,20.1756182485745,0.78153476309811
512,20.2154903151609,0.777615949305186
513,20.2552515333844,0.772836609981055
514,20.2950550980127,0.767371655016935
515,20.3345566724143,0.761468865665773
516,20.3741206607291,0.75509442305406
517,20.4135893539127,0.748518029136771
